GantryAngle(Varian) R2L(ppcX) P2A(-ppcY) I2S(ppcZ) (mm)
359.000000  0.0 -0.034593 -0.061315
357.983000  0.003554 0.076302 -0.191324
355.948900  -0.009468 0.051874 -0.072641
353.914800  -0.047425 0.284268 0.167696
351.880700  -0.080447 0.408371 0.310893
349.846600  -0.059537 0.032597 0.274521
347.812500  0.04412 0.305994 0.211891
345.778400  0.19027 0.433151 0.004808
343.744300  0.22341 0.258148 -0.177858
341.710200  -0.020951 0.274951 0.099031
339.676100  -0.62221 0.558340 0.296683
337.642000  -1.4608 0.761371 0.382310
335.608000  -2.2468 0.681871 0.334277
333.573900  -2.6433 0.987055 0.212309
331.539800  -2.4425 1.179665 0.137341
329.505700  -1.6549 0.998660 0.203222
327.471600  -0.49453 1.014026 0.283345
325.437500  0.75147 1.511299 0.423670
323.403400  1.8476 1.492194 0.344998
321.369300  2.6685 1.489038 0.357074
319.335200 3.213 2.016553 0.355862
317.301100  3.589 2.112346 0.067048
315.267000  3.9333 1.901474 0.014035
313.233000  4.3499 2.068008 0.357606
311.198900  4.8521 1.742157 0.434658
309.164800  5.2855 1.556792 0.486683
307.130700  5.4193 1.809845 0.418238
305.096600 5.0535 1.640390 0.318433
303.062500 4.0668 1.574609 0.109138
301.028400  2.4874 1.709712 -0.143157
298.994300  0.42642 1.401392 -0.132978
296.960200  -1.966 1.459950 0.098388
294.926100  -4.4868 1.394290 0.189573
292.892000  -6.8506 1.732188 0.266254
290.858000  -8.7233 1.487071 0.393790
288.823900 -9.8188 1.742320 0.431758
286.789800  -10.065 1.957266 0.080016
284.755700  -9.6563 1.714782 0.008910
282.721600  -8.9667 1.683116 0.239083
280.687500  -8.3403 1.848950 0.348973
278.653400  -7.9584 1.830024 0.492179
276.619300  -7.8215 1.872790 0.515402
274.585200  -7.8656 2.191090 0.325875
272.551100  -8.0195 1.716903 -0.000298
270.517000  -8.1721 1.854875 -0.142695
268.483000  -8.1142 1.817237 0.229233
266.448900  -7.5214 1.643941 0.288274
264.414800  -6.1455 1.717621 0.496144
262.380700  -4.0255 1.412170 0.506313
260.346600  -1.5017 1.359486 0.404307
258.312500  0.93715 1.705636 0.497467
256.278400  2.8942 1.879304 0.173294
254.244300  4.2313 2.068017 0.158517
252.210200  4.996 1.956077 0.197065
250.176100 5.2672 2.101607 0.229436
248.142000  5.0314 2.256996 0.485115
246.108000  4.2015 2.097313 0.494321
244.073900  2.7526 2.646516 0.716288
242.039800  0.78538 2.583493 0.687977
240.005700  -1.477 2.801509 0.580888
237.971600  -3.7792 2.961550 0.297586
235.937500  -5.8782 2.939453 0.375991
233.903400  -7.5328 3.118189 0.613787
231.869300  -8.4818 3.385764 0.691034
229.835200  -8.52 2.981267 0.910049
227.801100  -7.5782 2.582210 0.810966
225.767000  -5.789 2.441111 0.543304
223.733000  -3.4764 2.809046 0.388679
221.698900  -1.0416 3.298456 0.370097
219.664800  1.1416 3.190959 0.583407
217.630700  2.8482 3.102128 0.712174
215.596600  4.0235 2.915870 0.669915
213.562500  4.7748 3.268308 0.581593
211.528400  5.2839 2.891021 0.533071
209.494300  5.6931 2.775204 0.138409
207.460200  6.0167 3.070579 0.206551
205.426100  6.122 2.727297 0.515412
203.392000  5.7931 2.757148 0.628173
201.358000  4.8695 2.637928 0.809388
199.323900  3.316 2.834043 1.012265
197.289800  1.2589 2.947306 1.008662
195.255700  -1.0485 3.045301 0.967181
193.221600  -3.3057 3.054126 1.008652
191.187500  -5.2196 2.932963 0.984164
189.153400  -6.5454 2.868855 0.958057
187.119300  -7.1161 2.858512 0.785752
185.085200  -6.8511 2.677376 0.390588
183.051100  -5.7914 2.369034 0.337638
181.017000  -4.072 2.339871 0.506871
178.983000  -1.9408 2.539530 0.726844
176.948900  0.29059 2.332383 0.714811
174.914800  2.3097 1.663043 0.642914
172.880700  3.8825 1.964355 0.895792
170.846600  4.9498 2.004665 0.828681
168.812500  5.614 1.777664 0.405410
166.778400  6.0459 1.832766 0.084865
164.744300  6.3641 2.012725 -0.170903
162.710200  6.5067 1.577962 -0.035911
160.676100  6.2654 1.682148 0.301114
158.642000  5.4155 1.764004 0.488207
156.608000 3.863 1.374229 0.476642
154.573900  1.7359 1.387456 0.621296
152.539800  -0.65026 1.698328 0.607011
150.505700  -2.912 1.670524 0.468302
148.471600  -4.6854 1.889274 0.296427
146.437500  -5.7074 1.560854 -0.122883
144.403400  -5.8346 1.214192 0.202384
142.369300  -5.0557 1.423494 0.348816
140.335200  -3.516 1.352272 0.354543
138.301100  -1.4803 1.569394 0.498904
136.267000  0.67919 1.824329 0.567862
134.233000  2.5997 1.516213 0.646504
132.198900  4.0496 1.624506 0.348510
130.164800  4.9965 1.948562 0.274429
128.130700  5.5957 2.028499 0.318939
126.096600  6.0357 2.143763 0.411534
124.062500  6.4082 2.180075 0.636168
122.028400  6.605 2.510954 0.805836
119.994300  6.3863 2.491191 0.830166
117.960200  5.5176 2.356765 0.728761
115.926100  3.9357 2.489194 0.797116
113.892000  1.7821 3.030128 0.601432
111.858000  -0.66791 3.127269 0.990008
109.823900  -3.1041 3.468405 1.105950
107.789800  -5.234 3.560356 1.190416
105.755700  -6.752 3.218588 1.375147
103.721600  -7.3727 3.446952 1.348962
101.687500  -6.8843 4.024102 1.001664
99.653400  -5.3053 3.978620 0.591550
97.619300  -2.9436 4.588896 1.011026
95.585200  -0.32526 4.335686 1.035002
93.551100  1.9939 4.243498 1.015222
91.517000  3.6699 4.609789 1.048963
89.483000  4.651 4.537468 1.094178
87.448900  5.1557 5.048011 1.099166
85.414800  5.478 5.292561 0.874660
83.380700  5.8386 5.144329 0.440055
81.346600  6.268 4.848684 0.404048
79.312500  6.6187 4.855900 0.708713
77.278400  6.6311 5.128559 1.022362
75.244300  6.0545 4.618033 0.991724
73.210200  4.7781 4.292996 1.039086
71.176100  2.8658 4.931408 1.232516
69.142000  0.56027 5.084445 1.277547
67.108000  -1.827 5.129497 1.249416
65.073900  -3.9745 4.970324 0.995889
63.039800  -5.6077 5.127509 1.235986
61.005700  -6.4857 5.148693 1.307808
58.971600  -6.4216 5.536772 1.297797
56.937500  -5.3552 5.170503 1.305375
54.903400  -3.4163 5.364279 1.306188
52.869300  -0.96994 5.258688 1.261078
50.835200  1.4918 4.638018 0.858213
48.801100  3.5042 4.762433 0.923875
46.767000  4.8362 5.684357 1.151616
44.733000  5.5415 5.535997 1.350158
42.698900  5.8791 5.115446 1.451572
40.664800  6.1297 4.715831 1.425268
38.630700  6.4076 4.849560 1.328882
36.596600  6.6284 4.713342 1.205454
34.562500  6.5533 4.948869 0.789034
32.528400  5.9529 5.069677 0.556891
30.494300  4.7155 4.929972 0.705760
28.460200  2.8991 4.548653 1.223334
26.426100  0.69335 4.961512 1.129006
24.392000  -1.6609 4.650373 1.265519
22.358000  -3.8864 4.408246 1.234749
20.323900  -5.7063 4.274303 1.230360
18.289800  -6.8351 4.235272 0.916681
16.255700  -7.0455 4.188453 0.814036
14.221600  -6.2333 4.055584 0.759651
12.187500  -4.5083 4.025300 0.843661
10.153400  -2.1978 4.254273 1.015169
8.119300  0.21509 4.090892 0.971974
6.085200  2.2887 3.705289 0.924543
4.051100  3.7912 3.899344 1.010743
2.017000  4.7323 3.685744 0.811500
1.000000  5.2974 3.857659 0.613833
